SpectraSmart Spectrum 2.0.0.0
--------- Device Information -----------
Spectrum Name :  穿透率_0
Saving Time :  2019/11/12 15:32:34
Spectro-Module Model Name : SD1200-UVN
Spectro-Module Serial Number : OS361AC55005161
Wavelength Start : 300
Wavelength End : 1100
Wavelength Unit : Wavelength(nm)
Spectrum Unit : uWatt
-----------Spectrum Setting ------------
Integration Time : 1000us
Average : 1
Boxcar : 0
Background removal  : enabled
linearity correction  : enabled
SC  : disabled
Intensity correction  : disabled
savitzky-golay  : enabled
savitzky-golay degree  : 5
---------------BEGIN--------------------
Wavelength(nm)            Transmission(%)
300.10        64.12908
300.72        62.98937
301.34         60.1123
301.96        58.89012
302.58         57.6742
303.20        60.14972
303.83         61.2362
304.45        64.44679
305.07        67.55249
305.70        71.45264
306.32        70.32733
306.94        70.71973
307.57         70.8819
308.19        67.62304
308.82        68.51945
309.45        65.78152
310.07        62.14035
310.70        61.13449
311.33        60.67671
311.96        56.66728
312.58        59.77511
313.21        62.60674
313.84        65.15377
314.47        63.95799
315.10        65.39188
315.73        65.69116
316.36        67.25163
316.99        66.31589
317.62        66.02016
318.26        67.08192
318.89        66.78465
319.52        61.87559
320.15        63.77052
320.79        71.14295
321.42        73.66148
322.06        72.18671
322.69        78.27476
323.33        76.07802
323.96        72.89429
324.60        73.04824
325.24        75.65715
325.87        69.19013
326.51        68.38125
327.15        67.90377
327.79        64.82673
328.43        62.55547
329.06        65.25871
329.70        67.82149
330.34        66.44887
330.98        65.55593
331.62         64.6999
332.27        63.16535
332.91         60.0703
333.55         61.0019
334.19        64.92924
334.83        65.23238
335.48        65.83722
336.12        68.61094
336.77        68.93045
337.41        67.27446
338.06        65.28278
338.70        68.77257
339.35        66.04276
339.99        65.46165
340.64        63.44405
341.29        63.89178
341.93        60.11904
342.58        58.86177
343.23        61.74501
343.88        62.03236
344.53        64.61834
345.18        67.89493
345.83        69.93468
346.48        66.05114
347.13        65.32014
347.78        61.54003
348.43        58.27031
349.08        60.01117
349.74        61.22305
350.39        61.86877
351.04        64.84058
351.69        63.80305
352.35        60.03075
353.00        59.79479
353.66        57.91999
354.31        56.50837
354.97        58.43262
355.63        57.43674
356.28        54.37317
356.94        56.73819
357.60        56.97851
358.25        55.29068
358.91        54.43291
359.57        54.23502
360.23        50.68604
360.89        47.75072
361.55        48.56799
362.21        50.09072
362.87        49.43269
363.53        49.58544
364.19        51.90552
364.86        52.61189
365.52        49.89196
366.18         49.5727
366.84        48.30444
367.51        48.09391
368.17        45.71839
368.84        50.07478
369.50        50.19445
370.17        51.51563
370.83        48.82271
371.50        49.45535
372.16        46.07058
372.83        45.33257
373.50          44.431
374.17        46.91121
374.83         44.7007
375.50        45.36437
376.17        46.52724
376.84        46.53605
377.51        45.11159
378.18        45.63413
378.85        43.09781
379.52        41.99828
380.19        40.90077
380.86        40.70256
381.54        42.23395
382.21        42.76416
382.88        41.99697
383.56        42.40487
384.23        40.41084
384.90        38.15272
385.58        39.29798
386.25         38.7562
386.93         37.9045
387.61        38.80308
388.28        37.48656
388.96        35.59318
389.64        37.01266
390.31        36.48907
390.99        36.01519
391.67        36.61475
392.35        35.59832
393.03        32.28594
393.71        32.25029
394.39        30.75219
395.07         29.2033
395.75        29.11948
396.43        30.01563
397.11        29.38273
397.79        29.72059
398.48        29.70275
399.16        30.06276
399.84        28.69188
400.53        28.11629
401.21        27.72811
401.89        28.45824
402.58        27.74467
403.26        27.78977
403.95        26.77323
404.64        25.88728
405.32        24.05589
406.01        23.39633
406.70        22.73623
407.38        22.84525
408.07        23.18033
408.76        23.32889
409.45        22.80571
410.14        22.82338
410.83        22.21028
411.52         21.6027
412.21        21.35501
412.90        20.68357
413.59        20.05583
414.28         19.9916
414.98        18.99735
415.67        19.17566
416.36        19.17256
417.06        19.52435
417.75        19.10242
418.44         19.6996
419.14        19.34918
419.83        18.84295
420.53        18.73905
421.23         19.2097
421.92        18.49355
422.62        18.69571
423.32        19.62854
424.01        19.40133
424.71        19.07474
425.41        19.99483
426.11        19.34734
426.81        18.80262
427.51        18.63285
428.21        18.43657
428.91        17.68417
429.61        17.49161
430.31        17.06491
431.01        16.49444
431.71        15.93816
432.41        15.39188
433.12        15.84739
433.82        15.84944
434.52        16.18846
435.23        15.46651
435.93        15.73439
436.64        15.01004
437.34        14.85773
438.05        14.43443
438.75        14.83849
439.46         15.0583
440.17        14.94514
440.87        14.86789
441.58        14.71401
442.29        14.79634
443.00        14.08166
443.70        13.89802
444.41        13.45654
445.12        12.85976
445.83        12.50888
446.54        12.67451
447.25        12.36917
447.97        11.99159
448.68        12.04236
449.39        12.19448
450.10        11.65103
450.81        12.13839
451.53        11.97435
452.24        12.06801
452.95        11.92148
453.67        12.05897
454.38        11.69624
455.10        12.13153
455.81        11.61652
456.53        11.25658
457.25         11.0895
457.96        10.97036
458.68        10.54947
459.40        10.66483
460.11        10.49243
460.83        10.18313
461.55         9.58526
462.27        9.406261
462.99        9.320963
463.71        9.078237
464.43        9.041298
465.15        8.893386
465.87        8.781754
466.59        8.289673
467.31        8.022469
468.04        7.823983
468.76        7.903025
469.48        7.705895
470.21        7.739742
470.93        7.651582
471.65        7.551439
472.38         7.38389
473.10        7.385933
473.83        7.559559
474.55        7.554778
475.28        7.607948
476.01          7.5631
476.73        7.663895
477.46        7.350896
478.19        7.411767
478.92        7.210282
479.64        7.270417
480.37        7.357717
481.10         7.35039
481.83        7.467415
482.56        7.273921
483.29        7.209157
484.02        7.147859
484.75        7.047924
485.49        6.917382
486.22        7.222807
486.95        7.375241
487.68         7.18304
488.42        7.142737
489.15        7.171146
489.88        6.871947
490.62        6.659497
491.35        6.586835
492.09        6.688005
492.82        6.858103
493.56        6.917285
494.30        6.985304
495.03        6.893836
495.77         6.82726
496.51        6.675976
497.24        6.742716
497.98        6.715309
498.72        6.941488
499.46        6.879281
500.20        6.828304
500.94        6.731139
501.68        6.610112
502.42        6.335697
503.16        6.487794
503.90        6.477418
504.64        6.593008
505.38         6.64974
506.13        6.720605
506.87        6.676685
507.61        6.533132
508.36        6.561516
509.10         6.69414
509.84        6.563883
510.59        6.610837
511.33        6.695687
512.08        6.439714
512.83         6.22026
513.57        6.344007
514.32        6.201772
515.07        5.888851
515.81        6.092947
516.56        6.063591
517.31        5.948428
518.06        5.923497
518.81        6.089198
519.56        5.950912
520.31        5.914517
521.06        5.870209
521.81        5.771575
522.56        5.648004
523.31        5.619147
524.06        5.417086
524.81        5.433125
525.56        5.466504
526.32          5.4622
527.07         5.30387
527.82        5.336021
528.58        5.168192
529.33        5.020803
530.09        4.931395
530.84        4.851243
531.60        4.777115
532.35        4.657015
533.11        4.648973
533.86        4.553231
534.62        4.632269
535.38         4.63158
536.14        4.743996
536.89        4.734972
537.65        4.765485
538.41        4.647181
539.17        4.578964
539.93        4.500519
540.69        4.511433
541.45        4.463833
542.21         4.61473
542.97        4.746721
543.73        4.732588
544.49        4.676007
545.26        4.595881
546.02        4.477473
546.78        4.380607
547.54        4.478177
548.31        4.465786
549.07        4.525099
549.84        4.544488
550.60        4.567935
551.37        4.501841
552.13        4.427675
552.90        4.495533
553.66        4.439126
554.43        4.358681
555.20        4.400235
555.96        4.444916
556.73        4.347582
557.50        4.363625
558.27        4.377995
559.04        4.404979
559.81        4.467249
560.58        4.654838
561.35        4.703099
562.12        4.684742
562.89        4.464298
563.66        4.478246
564.43        4.320594
565.20        4.327415
565.97        4.362056
566.74        4.469215
567.52        4.487423
568.29        4.602381
569.06        4.532409
569.84        4.454272
570.61        4.425776
571.39        4.301256
572.16        4.154729
572.94        4.148561
573.71        4.231618
574.49        4.250157
575.27        4.355999
576.04        4.290197
576.82        4.369798
577.60        4.612617
578.37        4.702833
579.15        4.789894
579.93        5.201058
580.71        5.424745
581.49        5.717813
582.27        6.333444
583.05        7.039649
583.83        7.823006
584.61        8.805467
585.39         9.82501
586.17        10.98304
586.96        12.30373
587.74        14.08722
588.52        15.95593
589.30        18.22156
590.09        20.55467
590.87        23.46674
591.65        26.31078
592.44        29.53746
593.22        32.80843
594.01        36.38988
594.79        39.86616
595.58        43.50881
596.37        47.30318
597.15        50.97403
597.94        54.92461
598.73        58.74703
599.52        62.58009
600.30        66.31597
601.09        70.18921
601.88        73.56284
602.67        77.16584
603.46        81.14888
604.25        84.65621
605.04        87.81181
605.83        91.47353
606.62        94.71318
607.41        97.10168
608.20        99.22971
608.99        100.9753
609.79        101.7587
610.58        102.0658
611.37        102.0637
612.17        102.0615
612.96        102.0594
613.75        102.0571
614.55        102.0549
615.34        102.0525
616.14        102.0504
616.93        102.0479
617.73        102.0457
618.52        102.0434
619.32        102.0412
620.12         102.039
620.91        102.0368
621.71        102.0345
622.51        102.0323
623.31        102.0302
624.11        102.0278
624.91        102.0255
625.71        102.0235
626.50        102.0212
627.30        102.0188
628.10        102.0166
628.91        102.0143
629.71         102.012
630.51        102.0098
631.31        102.0076
632.11        102.0054
632.91        102.0031
633.72        102.0008
634.52        101.9986
635.32        101.9964
636.13        101.9943
636.93        101.9922
637.74        101.9899
638.54        101.9876
639.35        101.9852
640.15         101.983
640.96        101.9806
641.76        101.9781
642.57        101.9758
643.38        101.9736
644.18        101.9715
644.99        101.9693
645.80        101.9671
646.61         101.965
647.42        101.9626
648.22        101.9602
649.03        101.9579
649.84        101.9557
650.65        101.9534
651.46        101.9511
652.27         101.949
653.08        101.9468
653.90        101.9446
654.71        101.9423
655.52        101.9401
656.33        101.9377
657.14        101.9355
657.96        101.9332
658.77        101.9309
659.58        101.9286
660.40        101.9263
661.21         101.924
662.03        101.9217
662.84        101.9195
663.66        101.9172
664.47         101.915
665.29        101.9127
666.11        101.9105
666.92        101.9083
667.74         101.906
668.56        101.9036
669.37        101.9014
670.19        101.8991
671.01        101.8969
671.83        101.8945
672.65        101.8923
673.47        101.8899
674.29        101.8877
675.11        101.8854
675.93        101.8832
676.75        101.8809
677.57        101.8787
678.39        101.8763
679.21        101.8741
680.03        101.8717
680.86        101.8694
681.68        101.8672
682.50        101.8649
683.32        101.8627
684.15        101.8604
684.97        101.8582
685.80        101.8558
686.62        101.8535
687.45        101.8512
688.27         101.849
689.10        101.8466
689.92        101.8443
690.75         101.842
691.58        101.8398
692.40        101.8374
693.23        101.8352
694.06        101.8329
694.88        101.8306
695.71        101.8282
696.54         101.826
697.37        101.8236
698.20        101.8213
699.03        101.8192
699.86        101.8168
700.69        101.8145
701.52        101.8122
702.35        101.8099
703.18        101.8075
704.01        101.8053
704.84        101.8028
705.68        101.8006
706.51        101.7984
707.34         101.796
708.17        101.7937
709.01        101.7915
709.84        101.7891
710.67        101.7867
711.51        101.7845
712.34        101.7822
713.18        101.7801
714.01        101.7777
714.85        101.7754
715.68        101.7731
716.52        101.7709
717.36        101.7685
718.19        101.7663
719.03         101.764
719.87        101.7618
720.71        101.7594
721.54         101.757
722.38        101.7547
723.22        101.7524
724.06        101.7501
724.90        101.7476
725.74        101.7453
726.58        101.7431
727.42        101.7409
728.26        101.7384
729.10        101.7362
729.94        101.7339
730.78        101.7315
731.62        101.7291
732.47        101.7269
733.31        101.7245
734.15        101.7224
734.99          101.72
735.84        101.7176
736.68        101.7152
737.53         101.713
738.37        101.7106
739.21        101.7082
740.06        101.7059
740.90        101.7037
741.75        101.7015
742.60        101.6992
743.44        101.6969
744.29        101.6946
745.13        101.6923
745.98        101.6898
746.83        101.6875
747.68        101.6853
748.52        101.6831
749.37        101.6808
750.22        101.6786
751.07        101.6762
751.92        101.6739
752.77        101.6715
753.62        101.6692
754.47        101.6667
755.32        101.6645
756.17        101.6621
757.02        101.6597
757.87        101.6573
758.72        101.6551
759.58        101.6527
760.43        101.6504
761.28        101.6479
762.13        101.6456
762.99        101.6433
763.84        101.6411
764.69        101.6388
765.55        101.6365
766.40        101.6342
767.26        101.6318
768.11        101.6294
768.97        101.6271
769.82        101.6249
770.68        101.6226
771.53        101.6203
772.39        101.6179
773.25        101.6156
774.10        101.6132
774.96        101.6109
775.82        101.6085
776.67        101.6062
777.53        101.6038
778.39        101.6014
779.25         101.599
780.11        101.5488
780.97         101.194
781.83        100.5192
782.69        99.36961
783.55        97.83683
784.41         95.9868
785.27        94.33243
786.13        92.85212
786.99        91.89906
787.85        91.59164
788.71        91.45466
789.58        91.39217
790.44        92.08053
791.30        92.14874
792.16        92.16503
793.03        91.99229
793.89        91.95184
794.75         91.5757
795.62        91.28764
796.48        91.08077
797.35        90.98987
798.21        90.80428
799.08        90.44816
799.94        90.68053
800.81        90.82197
801.68        91.39728
802.54        91.70457
803.41        91.68121
804.28        91.57397
805.14        91.28446
806.01        90.59225
806.88        90.48587
807.75        90.80152
808.62        91.25931
809.48        91.19166
810.35        91.52367
811.22        91.62584
812.09        91.11553
812.96        90.90437
813.83        91.56786
814.70         91.3676
815.57        91.23117
816.44        91.27959
817.31        91.44303
818.19        90.79376
819.06        90.74332
819.93        90.73436
820.80        90.91173
821.67        90.65869
822.55         90.6891
823.42        90.95912
824.29        90.82592
825.17        91.05808
826.04        90.82008
826.92        91.02728
827.79         90.4258
828.66        90.40764
829.54        89.96564
830.41        90.51928
831.29        90.27229
832.17        90.60397
833.04        90.81342
833.92        91.31502
834.80        91.00923
835.67        90.70564
836.55        90.65501
837.43        90.64197
838.30        90.25702
839.18        90.78069
840.06        90.89307
840.94        91.84015
841.82        92.01978
842.70        92.04988
843.58        91.32823
844.46        91.02666
845.34        90.21123
846.22        89.68629
847.10        89.82887
847.98        89.88689
848.86        90.51794
849.74        91.09945
850.62        91.40377
851.50        91.12457
852.38        91.31944
853.27        91.27528
854.15        90.86847
855.03         90.7998
855.92        91.11918
856.80        90.84513
857.68         90.7319
858.57        90.50409
859.45        90.29232
860.33         90.7865
861.22        90.96392
862.10        90.76556
862.99        91.03902
863.87         91.5275
864.76        91.12746
865.65        90.80939
866.53        91.21822
867.42        91.24463
868.30        91.26351
869.19        90.98044
870.08         91.2001
870.97        91.32565
871.85        90.86909
872.74        90.71587
873.63        90.82873
874.52        91.15544
875.41        90.92529
876.30        91.30068
877.19        91.26364
878.07        91.57486
878.96           91.33
879.85        91.50263
880.74        91.49382
881.64        91.54662
882.53        91.13483
883.42        90.59335
884.31        90.22585
885.20        90.10638
886.09        89.90416
886.98        89.97871
887.88        90.37192
888.77        90.27157
889.66        90.49042
890.55         90.6927
891.45        90.43093
892.34        90.52747
893.23        90.63368
894.13        90.53936
895.02        90.19931
895.92        90.05883
896.81        89.77181
897.71        89.40124
898.60        89.07402
899.50         89.2569
900.39        89.57481
901.29        89.41415
902.18        89.65877
903.08        89.70702
903.98        90.04329
904.87         90.0731
905.77        90.25195
906.67        90.39838
907.57        90.65735
908.46         90.4189
909.36        90.30148
910.26        90.14467
911.16        90.02418
912.06          89.961
912.96        89.84109
913.86        89.71268
914.76        90.16069
915.66        90.28976
916.56        90.65298
917.46        90.20782
918.36        90.40897
919.26        90.41695
920.16        90.65631
921.06         90.8299
921.96        91.77354
922.86        92.07968
923.76        91.29218
924.67        91.95753
925.57        91.65334
926.47        91.08972
927.37        91.01679
928.28        91.88209
929.18        91.12425
930.08         90.9752
930.99        90.94466
931.89        91.03973
932.80        90.62012
933.70        90.81219
934.60        90.45949
935.51        91.14047
936.41        90.96264
937.32        91.30095
938.22        91.40674
939.13        92.13689
940.04        91.82041
940.94         91.7016
941.85        91.80403
942.76        91.39418
943.66        90.94154
944.57        90.81297
945.48        91.00345
946.38        91.28539
947.29        91.49207
948.20        91.64707
949.11        91.97243
950.02        92.30509
950.93        92.11048
951.84        92.51878
952.74        92.67149
953.65        92.35757
954.56        92.43384
955.47         92.5443
956.38        92.73407
957.29        92.49097
958.20          92.989
959.11        92.77016
960.03        92.61933
960.94        91.29006
961.85        91.04089
962.76        90.67755
963.67        90.55833
964.58        90.97382
965.50        91.79182
966.41        91.96626
967.32        92.29646
968.23        92.53838
969.15        92.78162
970.06        92.65657
970.97        92.97123
971.89        92.71221
972.80        91.92409
973.71         91.3638
974.63        91.41164
975.54        91.12125
976.46        90.32043
977.37        90.97448
978.29         91.0094
979.20        91.52692
980.12        91.61636
981.04        92.46824
981.95        92.28264
982.87        92.61861
983.78        92.22478
984.70        91.87551
985.62        92.34233
986.53        92.45222
987.45        91.12198
988.37        90.89992
989.29        91.06721
990.20        90.65147
991.12        90.40243
992.04        91.09375
992.96        91.45058
993.88        91.83199
994.80        91.04664
995.72        91.92509
996.64        92.25217
997.56        91.31647
998.47        91.36617
999.39        92.23203
1000.32         91.8443
1001.24         90.7753
1002.16        91.54118
1003.08        91.27154
1004.00        91.43184
1004.92        90.42255
1005.84        91.95438
1006.76        91.33318
1007.68        91.12337
1008.61        90.75271
1009.53        90.96153
1010.45        90.56589
1011.37        91.30222
1012.30        92.48964
1013.22        91.57958
1014.14        91.64182
1015.06        91.30529
1015.99        90.59612
1016.91        89.95954
1017.84        90.27728
1018.76        90.72101
1019.68        90.78925
1020.61        90.83275
1021.53        90.84307
1022.46        90.80457
1023.38        90.15057
1024.31        90.68224
1025.23        90.03171
1026.16        90.38416
1027.08        90.79494
1028.01        91.44157
1028.94        91.15227
1029.86        92.64256
1030.79        91.68711
1031.72        92.21246
1032.64        91.54472
1033.57        92.53976
1034.50        92.62405
1035.43        93.02904
1036.35        92.79874
1037.28        92.93885
1038.21         92.2588
1039.14         92.4731
1040.07        92.51903
1040.99        91.47549
1041.92        91.43314
1042.85        91.36129
1043.78        90.09785
1044.71        91.52422
1045.64        92.65713
1046.57        94.56053
1047.50        93.43178
1048.43        95.09576
1049.36        94.06728
1050.29        94.27853
1051.22        94.14001
1052.15        94.16876
1053.08        92.56934
1054.01        91.57819
1054.94        92.01452
1055.88        91.09201
1056.81        91.65525
1057.74        92.22115
1058.67        91.68264
1059.60        90.75189
1060.54         90.7009
1061.47        91.95887
1062.40        91.11638
1063.33        91.50104
1064.27        90.89908
1065.20        89.99868
1066.13        87.40697
1067.07        89.19923
1068.00        90.61084
1068.93        90.28351
1069.87        91.95967
1070.80        93.49934
1071.74        90.68736
1072.67        88.26745
1073.61        88.73116
1074.54         88.2862
1075.48        88.52907
1076.41        90.65083
1077.35        91.09342
1078.28        91.48998
1079.22        92.42527
1080.15        92.40682
1081.09        93.59689
1082.03        96.46011
1082.96        96.72789
1083.90        95.44466
1084.84        97.89577
1085.77         94.9783
1086.71        91.05869
1087.65        91.05254
1088.59        90.47313
1089.52        87.70779
1090.46        88.85588
1091.40        90.65237
1092.34         92.5198
1093.28         92.4351
1094.21        92.58346
1095.15        92.65142
1096.09         93.9564
1097.03        91.06223
1097.97        87.84936
1098.91        85.71661
1099.85        86.28188
